# Pulseq sequence file
# Created by MATLAB mr toolbox

[VERSION]
major 1
minor 4
revision 1

[DEFINITIONS]
AdcRasterTime 1e-07 
BlockDurationRaster 1e-05 
FOV 0.25 0.25 0.105 
GradientRasterTime 1e-05 
Name QA_T1 
RadiofrequencyRasterTime 1e-06 
ReadoutOversamplingFactor 2 
ReceiverGainHigh 1 
SliceGap 0.005 
SlicePositions -0.05 -0.03 -0.01 0.01 0.03 0.05 -0.04 -0.02 0 0.02 0.04 
SliceThickness 0.005 
TotalDuration 256.03072 

# Format of blocks:
# NUM DUR RF  GX  GY  GZ  ADC  EXT
[BLOCKS]
    1   0   0   0   0   0  0  1
    2   0   0   0   0   0  0  2
    3 344   1   0   0   1  0  0
    4 200   0   2   3   0  0  0
    5  44   0   0   0   0  0  0
    6 1226   2   5   6   4  0  0
    7  90   0   0   0   0  0  0
    8 536   0   7   0   0  1  0
    9   0   0   0   0   0  0  3
   10 207   0   8   3   9  0  0
   11 1899   0   0   0   0  0  0
   12 344   3   0   0   1  0  0
   13 200   0   2   3   0  0  0
   14  44   0   0   0   0  0  0
   15 1226   4   5   6   4  0  0
   16  90   0   0   0   0  0  0
   17 536   0   7   0   0  1  0
   18   0   0   0   0   0  0  3
   19 207   0   8   3   9  0  0
   20 1899   0   0   0   0  0  0
   21 344   5   0   0   1  0  0
   22 200   0   2   3   0  0  0
   23  44   0   0   0   0  0  0
   24 1226   6   5   6   4  0  0
   25  90   0   0   0   0  0  0
   26 536   0   7   0   0  1  0
   27   0   0   0   0   0  0  3
   28 207   0   8   3   9  0  0
   29 1899   0   0   0   0  0  0
   30 344   7   0   0   1  0  0
   31 200   0   2   3   0  0  0
   32  44   0   0   0   0  0  0
   33 1226   8   5   6   4  0  0
   34  90   0   0   0   0  0  0
   35 536   0   7   0   0  1  0
   36   0   0   0   0   0  0  3
   37 207   0   8   3   9  0  0
   38 1899   0   0   0   0  0  0
   39 344   9   0   0   1  0  0
   40 200   0   2   3   0  0  0
   41  44   0   0   0   0  0  0
   42 1226  10   5   6   4  0  0
   43  90   0   0   0   0  0  0
   44 536   0   7   0   0  1  0
   45   0   0   0   0   0  0  3
   46 207   0   8   3   9  0  0
   47 1899   0   0   0   0  0  0
   48 344  11   0   0   1  0  0
   49 200   0   2   3   0  0  0
   50  44   0   0   0   0  0  0
   51 1226  12   5   6   4  0  0
   52  90   0   0   0   0  0  0
   53 536   0   7   0   0  1  0
   54   0   0   0   0   0  0  3
   55 207   0   8   3   9  0  0
   56 1899   0   0   0   0  0  0
   57 344  13   0   0   1  0  0
   58 200   0   2   3   0  0  0
   59  44   0   0   0   0  0  0
   60 1226  14   5   6   4  0  0
   61  90   0   0   0   0  0  0
   62 536   0   7   0   0  1  0
   63   0   0   0   0   0  0  3
   64 207   0   8   3   9  0  0
   65 1899   0   0   0   0  0  0
   66 344  15   0   0   1  0  0
   67 200   0   2   3   0  0  0
   68  44   0   0   0   0  0  0
   69 1226  16   5   6   4  0  0
   70  90   0   0   0   0  0  0
   71 536   0   7   0   0  1  0
   72   0   0   0   0   0  0  3
   73 207   0   8   3   9  0  0
   74 1899   0   0   0   0  0  0
   75 344  17   0   0   1  0  0
   76 200   0   2   3   0  0  0
   77  44   0   0   0   0  0  0
   78 1226  18   5   6   4  0  0
   79  90   0   0   0   0  0  0
   80 536   0   7   0   0  1  0
   81   0   0   0   0   0  0  3
   82 207   0   8   3   9  0  0
   83 1899   0   0   0   0  0  0
   84 344  19   0   0   1  0  0
   85 200   0   2   3   0  0  0
   86  44   0   0   0   0  0  0
   87 1226  20   5   6   4  0  0
   88  90   0   0   0   0  0  0
   89 536   0   7   0   0  1  0
   90   0   0   0   0   0  0  3
   91 207   0   8   3   9  0  0
   92 1899   0   0   0   0  0  0
   93 344  21   0   0   1  0  0
   94 200   0   2   3   0  0  0
   95  44   0   0   0   0  0  0
   96 1226  22   5   6   4  0  0
   97  90   0   0   0   0  0  0
   98 536   0   7   0   0  1  0
   99   0   0   0   0   0  0  3
  100 207   0   8   3   9  0  0
  101 1899   0   0   0   0  0  0
  102   0   0   0   0   0  0  4
  103   0   0   0   0   0  0  2
  104 344  23   0   0   1  0  0
  105 200   0   2  10   0  0  0
  106  44   0   0   0   0  0  0
  107 1226   2   5   6   4  0  0
  108  90   0   0   0   0  0  0
  109 536   0   7   0   0  2  0
  110   0   0   0   0   0  0  3
  111 207   0   8  10   9  0  0
  112 1899   0   0   0   0  0  0
  113 344  24   0   0   1  0  0
  114 200   0   2  10   0  0  0
  115  44   0   0   0   0  0  0
  116 1226   4   5   6   4  0  0
  117  90   0   0   0   0  0  0
  118 536   0   7   0   0  2  0
  119   0   0   0   0   0  0  3
  120 207   0   8  10   9  0  0
  121 1899   0   0   0   0  0  0
  122 344  25   0   0   1  0  0
  123 200   0   2  10   0  0  0
  124  44   0   0   0   0  0  0
  125 1226   6   5   6   4  0  0
  126  90   0   0   0   0  0  0
  127 536   0   7   0   0  2  0
  128   0   0   0   0   0  0  3
  129 207   0   8  10   9  0  0
  130 1899   0   0   0   0  0  0
  131 344  26   0   0   1  0  0
  132 200   0   2  10   0  0  0
  133  44   0   0   0   0  0  0
  134 1226   8   5   6   4  0  0
  135  90   0   0   0   0  0  0
  136 536   0   7   0   0  2  0
  137   0   0   0   0   0  0  3
  138 207   0   8  10   9  0  0
  139 1899   0   0   0   0  0  0
  140 344  27   0   0   1  0  0
  141 200   0   2  10   0  0  0
  142  44   0   0   0   0  0  0
  143 1226  10   5   6   4  0  0
  144  90   0   0   0   0  0  0
  145 536   0   7   0   0  2  0
  146   0   0   0   0   0  0  3
  147 207   0   8  10   9  0  0
  148 1899   0   0   0   0  0  0
  149 344  28   0   0   1  0  0
  150 200   0   2  10   0  0  0
  151  44   0   0   0   0  0  0
  152 1226  12   5   6   4  0  0
  153  90   0   0   0   0  0  0
  154 536   0   7   0   0  2  0
  155   0   0   0   0   0  0  3
  156 207   0   8  10   9  0  0
  157 1899   0   0   0   0  0  0
  158 344  29   0   0   1  0  0
  159 200   0   2  10   0  0  0
  160  44   0   0   0   0  0  0
  161 1226  14   5   6   4  0  0
  162  90   0   0   0   0  0  0
  163 536   0   7   0   0  2  0
  164   0   0   0   0   0  0  3
  165 207   0   8  10   9  0  0
  166 1899   0   0   0   0  0  0
  167 344  30   0   0   1  0  0
  168 200   0   2  10   0  0  0
  169  44   0   0   0   0  0  0
  170 1226  16   5   6   4  0  0
  171  90   0   0   0   0  0  0
  172 536   0   7   0   0  2  0
  173   0   0   0   0   0  0  3
  174 207   0   8  10   9  0  0
  175 1899   0   0   0   0  0  0
  176 344  31   0   0   1  0  0
  177 200   0   2  10   0  0  0
  178  44   0   0   0   0  0  0
  179 1226  18   5   6   4  0  0
  180  90   0   0   0   0  0  0
  181 536   0   7   0   0  2  0
  182   0   0   0   0   0  0  3
  183 207   0   8  10   9  0  0
  184 1899   0   0   0   0  0  0
  185 344  32   0   0   1  0  0
  186 200   0   2  10   0  0  0
  187  44   0   0   0   0  0  0
  188 1226  20   5   6   4  0  0
  189  90   0   0   0   0  0  0
  190 536   0   7   0   0  2  0
  191   0   0   0   0   0  0  3
  192 207   0   8  10   9  0  0
  193 1899   0   0   0   0  0  0
  194 344  33   0   0   1  0  0
  195 200   0   2  10   0  0  0
  196  44   0   0   0   0  0  0
  197 1226  22   5   6   4  0  0
  198  90   0   0   0   0  0  0
  199 536   0   7   0   0  2  0
  200   0   0   0   0   0  0  3
  201 207   0   8  10   9  0  0
  202 1899   0   0   0   0  0  0
  203   0   0   0   0   0  0  4
  204   0   0   0   0   0  0  2
  205 344   1   0   0   1  0  0
  206 200   0   2  11   0  0  0
  207  44   0   0   0   0  0  0
  208 1226   2   5   6   4  0  0
  209  90   0   0   0   0  0  0
  210 536   0   7   0   0  1  0
  211   0   0   0   0   0  0  3
  212 207   0   8  11   9  0  0
  213 1899   0   0   0   0  0  0
  214 344   3   0   0   1  0  0
  215 200   0   2  11   0  0  0
  216  44   0   0   0   0  0  0
  217 1226   4   5   6   4  0  0
  218  90   0   0   0   0  0  0
  219 536   0   7   0   0  1  0
  220   0   0   0   0   0  0  3
  221 207   0   8  11   9  0  0
  222 1899   0   0   0   0  0  0
  223 344   5   0   0   1  0  0
  224 200   0   2  11   0  0  0
  225  44   0   0   0   0  0  0
  226 1226   6   5   6   4  0  0
  227  90   0   0   0   0  0  0
  228 536   0   7   0   0  1  0
  229   0   0   0   0   0  0  3
  230 207   0   8  11   9  0  0
  231 1899   0   0   0   0  0  0
  232 344   7   0   0   1  0  0
  233 200   0   2  11   0  0  0
  234  44   0   0   0   0  0  0
  235 1226   8   5   6   4  0  0
  236  90   0   0   0   0  0  0
  237 536   0   7   0   0  1  0
  238   0   0   0   0   0  0  3
  239 207   0   8  11   9  0  0
  240 1899   0   0   0   0  0  0
  241 344   9   0   0   1  0  0
  242 200   0   2  11   0  0  0
  243  44   0   0   0   0  0  0
  244 1226  10   5   6   4  0  0
  245  90   0   0   0   0  0  0
  246 536   0   7   0   0  1  0
  247   0   0   0   0   0  0  3
  248 207   0   8  11   9  0  0
  249 1899   0   0   0   0  0  0
  250 344  11   0   0   1  0  0
  251 200   0   2  11   0  0  0
  252  44   0   0   0   0  0  0
  253 1226  12   5   6   4  0  0
  254  90   0   0   0   0  0  0
  255 536   0   7   0   0  1  0
  256   0   0   0   0   0  0  3
  257 207   0   8  11   9  0  0
  258 1899   0   0   0   0  0  0
  259 344  13   0   0   1  0  0
  260 200   0   2  11   0  0  0
  261  44   0   0   0   0  0  0
  262 1226  14   5   6   4  0  0
  263  90   0   0   0   0  0  0
  264 536   0   7   0   0  1  0
  265   0   0   0   0   0  0  3
  266 207   0   8  11   9  0  0
  267 1899   0   0   0   0  0  0
  268 344  15   0   0   1  0  0
  269 200   0   2  11   0  0  0
  270  44   0   0   0   0  0  0
  271 1226  16   5   6   4  0  0
  272  90   0   0   0   0  0  0
  273 536   0   7   0   0  1  0
  274   0   0   0   0   0  0  3
  275 207   0   8  11   9  0  0
  276 1899   0   0   0   0  0  0
  277 344  17   0   0   1  0  0
  278 200   0   2  11   0  0  0
  279  44   0   0   0   0  0  0
  280 1226  18   5   6   4  0  0
  281  90   0   0   0   0  0  0
  282 536   0   7   0   0  1  0
  283   0   0   0   0   0  0  3
  284 207   0   8  11   9  0  0
  285 1899   0   0   0   0  0  0
  286 344  19   0   0   1  0  0
  287 200   0   2  11   0  0  0
  288  44   0   0   0   0  0  0
  289 1226  20   5   6   4  0  0
  290  90   0   0   0   0  0  0
  291 536   0   7   0   0  1  0
  292   0   0   0   0   0  0  3
  293 207   0   8  11   9  0  0
  294 1899   0   0   0   0  0  0
  295 344  21   0   0   1  0  0
[RF]
1      441.855 1 2 3 220 -18355.4 178.054
2       584.41 4 5 6 1440 -5908.3 163.668
3      441.855 1 2 3 220 -11013.2 108.717
4       584.41 4 5 6 1440 -3544.98 98.2006
5      441.855 1 2 3 220 -3671.07 39.3806
6       584.41 4 5 6 1440 -1181.66 32.7335
7      441.855 1 2 3 220 3671.07 -29.9558
8       584.41 4 5 6 1440 1181.66 -32.7335
9      441.855 1 2 3 220 11013.2 -99.2923
10       584.41 4 5 6 1440 3544.98 -98.2006
11      441.855 1 2 3 220 18355.4 -168.629
12       584.41 4 5 6 1440 5908.3 -163.668
13      441.855 1 2 3 220 -14684.3 143.385
14       584.41 4 5 6 1440 -4726.64 130.934
15      441.855 1 2 3 220 -7342.14 74.0489
16       584.41 4 5 6 1440 -2363.32 65.4671
17      441.855 1 2 3 220 0 4.71239
18       584.41 4 5 6 1440 0 -0
19      441.855 1 2 3 220 7342.14 -64.6241
20       584.41 4 5 6 1440 2363.32 -65.4671
21      441.855 1 2 3 220 14684.3 -133.961
22       584.41 4 5 6 1440 4726.64 -130.934
23      441.855 1 2 3 220 -18355.4 174.912
24      441.855 1 2 3 220 -11013.2 105.576
25      441.855 1 2 3 220 -3671.07 36.239
26      441.855 1 2 3 220 3671.07 -33.0974
27      441.855 1 2 3 220 11013.2 -102.434
28      441.855 1 2 3 220 18355.4 -171.77
29      441.855 1 2 3 220 -14684.3 140.244
30      441.855 1 2 3 220 -7342.14 70.9073
31      441.855 1 2 3 220 0 1.5708
32      441.855 1 2 3 220 7342.14 -67.7657
33      441.855 1 2 3 220 14684.3 -137.102

# Format of arbitrary gradients:
#   time_shape_id of 0 means default timing (stepping with grad_raster starting at 1/2 of grad_raster)
# id amplitude amp_shape_id time_shape_id delay
# ..      Hz/m       ..         ..          us
[GRADIENTS]
4  1.01598e+06 7 8 0
5            0 9 10 1420
6            0 9 10 1420

# Format of trapezoid gradients:
# id amplitude rise flat fall delay
# ..      Hz/m   us   us   us    us
[TRAP]
 1       367107 220 3000 220   0
 2      -287432 170 1660 170   0
 3      -279781 170 1660 170   0
 7      -200000 120 5120 120   0
 8           -0  10    0  10   0
 9  1.02041e+06 600  870 600   0
10      -277596 170 1660 170   0
11      -275410 170 1660 170   0
12      -273224 170 1660 170   0
13      -271038 170 1660 170   0
14      -268852 170 1660 170   0
15      -266667 170 1660 170   0
16      -264481 170 1660 170   0
17      -262295 170 1660 170   0
18      -260109 170 1660 170   0
19      -257923 170 1660 170   0
20      -255738 170 1660 170   0
21      -253552 170 1660 170   0
22      -251366 170 1660 170   0
23      -249180 170 1660 170   0
24      -246995 170 1660 170   0
25      -244809 170 1660 170   0
26      -242623 170 1660 170   0
27      -240437 170 1660 170   0
28      -238251 170 1660 170   0
29      -236066 170 1660 170   0
30      -233880 170 1660 170   0
31      -231694 170 1660 170   0
32      -229508 170 1660 170   0
33      -227322 170 1660 170   0
34      -225137 170 1660 170   0
35      -222951 170 1660 170   0
36      -220765 170 1660 170   0
37      -218579 170 1660 170   0
38      -216393 170 1660 170   0
39      -214208 170 1660 170   0
40      -212022 170 1660 170   0
41      -209836 170 1660 170   0
42      -207650 170 1660 170   0
43      -205464 170 1660 170   0
44      -203279 170 1660 170   0
45      -201093 170 1660 170   0
46      -198907 170 1660 170   0
47      -196721 170 1660 170   0
48      -194536 170 1660 170   0
49      -192350 170 1660 170   0
50      -190164 170 1660 170   0
51      -187978 170 1660 170   0
52      -185792 170 1660 170   0
53      -183607 170 1660 170   0
54      -181421 170 1660 170   0
55      -179235 170 1660 170   0
56      -177049 170 1660 170   0
57      -174863 170 1660 170   0
58      -172678 170 1660 170   0
59      -170492 170 1660 170   0
60      -168306 170 1660 170   0
61      -166120 170 1660 170   0
62      -163934 170 1660 170   0
63      -161749 170 1660 170   0
64      -159563 170 1660 170   0
65      -157377 170 1660 170   0
66      -155191 170 1660 170   0
67      -153005 170 1660 170   0
68      -150820 170 1660 170   0
69      -148634 170 1660 170   0
70      -146448 170 1660 170   0
71      -144262 170 1660 170   0
72      -142077 170 1660 170   0
73      -139891 170 1660 170   0
74      -137705 170 1660 170   0
75      -135519 170 1660 170   0
76      -133333 170 1660 170   0
77      -131148 170 1660 170   0
78      -128962 170 1660 170   0
79      -126776 170 1660 170   0
80      -124590 170 1660 170   0
81      -122404 170 1660 170   0
82      -120219 170 1660 170   0
83      -118033 170 1660 170   0
84      -115847 170 1660 170   0
85      -113661 170 1660 170   0
86      -111475 170 1660 170   0
87      -109290 170 1660 170   0
88      -107104 170 1660 170   0
89      -104918 170 1660 170   0
90      -102732 170 1660 170   0
91      -100546 170 1660 170   0
92     -98360.7 170 1660 170   0
93     -96174.9 170 1660 170   0
94     -93989.1 170 1660 170   0
95     -91803.3 170 1660 170   0
96     -89617.5 170 1660 170   0
97     -87431.7 170 1660 170   0
98     -85245.9 170 1660 170   0
99     -83060.1 170 1660 170   0
100     -80874.3 170 1660 170   0
101     -78688.5 170 1660 170   0
102     -76502.7 170 1660 170   0
103     -74316.9 170 1660 170   0
104     -72131.1 170 1660 170   0
105     -69945.4 170 1660 170   0
106     -67759.6 170 1660 170   0
107     -65573.8 170 1660 170   0
108       -63388 170 1660 170   0
109     -61202.2 170 1660 170   0
110     -59016.4 170 1660 170   0
111     -56830.6 170 1660 170   0
112     -54644.8 170 1660 170   0
113       -52459 170 1660 170   0
114     -50273.2 170 1660 170   0
115     -48087.4 170 1660 170   0
116     -45901.6 170 1660 170   0
117     -43715.8 170 1660 170   0
118     -41530.1 170 1660 170   0
119     -39344.3 170 1660 170   0
120     -37158.5 170 1660 170   0
121     -34972.7 170 1660 170   0
122     -32786.9 170 1660 170   0
123     -30601.1 170 1660 170   0
124     -28415.3 170 1660 170   0
125     -26229.5 170 1660 170   0
126     -24043.7 170 1660 170   0
127     -21857.9 170 1660 170   0
128     -19672.1 170 1660 170   0
129     -17486.3 170 1660 170   0
130     -15300.5 170 1660 170   0
131     -13114.8 170 1660 170   0
132       -10929 170 1660 170   0
133     -8743.17 170 1660 170   0
134     -6557.38 170 1660 170   0
135     -4371.58 170 1660 170   0
136     -2185.79 170 1660 170   0
137            0 170 1660 170   0
138      2185.79 170 1660 170   0
139      4371.58 170 1660 170   0
140      6557.38 170 1660 170   0
141      8743.17 170 1660 170   0
142        10929 170 1660 170   0
143      13114.8 170 1660 170   0
144      15300.5 170 1660 170   0
145      17486.3 170 1660 170   0
146      19672.1 170 1660 170   0
147      21857.9 170 1660 170   0
148      24043.7 170 1660 170   0
149      26229.5 170 1660 170   0
150      28415.3 170 1660 170   0
151      30601.1 170 1660 170   0
152      32786.9 170 1660 170   0
153      34972.7 170 1660 170   0
154      37158.5 170 1660 170   0
155      39344.3 170 1660 170   0
156      41530.1 170 1660 170   0
157      43715.8 170 1660 170   0
158      45901.6 170 1660 170   0
159      48087.4 170 1660 170   0
160      50273.2 170 1660 170   0
161        52459 170 1660 170   0
162      54644.8 170 1660 170   0
163      56830.6 170 1660 170   0
164      59016.4 170 1660 170   0
165      61202.2 170 1660 170   0
166        63388 170 1660 170   0
167      65573.8 170 1660 170   0
168      67759.6 170 1660 170   0
169      69945.4 170 1660 170   0
170      72131.1 170 1660 170   0
171      74316.9 170 1660 170   0
172      76502.7 170 1660 170   0
173      78688.5 170 1660 170   0
174      80874.3 170 1660 170   0
175      83060.1 170 1660 170   0
176      85245.9 170 1660 170   0
177      87431.7 170 1660 170   0
178      89617.5 170 1660 170   0
179      91803.3 170 1660 170   0
180      93989.1 170 1660 170   0
181      96174.9 170 1660 170   0
182      98360.7 170 1660 170   0
183       100546 170 1660 170   0
184       102732 170 1660 170   0
185       104918 170 1660 170   0
186       107104 170 1660 170   0
187       109290 170 1660 170   0
188       111475 170 1660 170   0
189       113661 170 1660 170   0
190       115847 170 1660 170   0
191       118033 170 1660 170   0
192       120219 170 1660 170   0
193       122404 170 1660 170   0
194       124590 170 1660 170   0
195       126776 170 1660 170   0
196       128962 170 1660 170   0
197       131148 170 1660 170   0
198       133333 170 1660 170   0
199       135519 170 1660 170   0
200       137705 170 1660 170   0
201       139891 170 1660 170   0
202       142077 170 1660 170   0
203       144262 170 1660 170   0
204       146448 170 1660 170   0
205       148634 170 1660 170   0
206       150820 170 1660 170   0
207       153005 170 1660 170   0
208       155191 170 1660 170   0
209       157377 170 1660 170   0
210       159563 170 1660 170   0
211       161749 170 1660 170   0
212       163934 170 1660 170   0
213       166120 170 1660 170   0
214       168306 170 1660 170   0
215       170492 170 1660 170   0
216       172678 170 1660 170   0
217       174863 170 1660 170   0
218       177049 170 1660 170   0
219       179235 170 1660 170   0
220       181421 170 1660 170   0
221       183607 170 1660 170   0
222       185792 170 1660 170   0
223       187978 170 1660 170   0
224       190164 170 1660 170   0
225       192350 170 1660 170   0
226       194536 170 1660 170   0
227       196721 170 1660 170   0
228       198907 170 1660 170   0
229       201093 170 1660 170   0
230       203279 170 1660 170   0
231       205464 170 1660 170   0
232       207650 170 1660 170   0
233       209836 170 1660 170   0
234       212022 170 1660 170   0
235       214208 170 1660 170   0
236       216393 170 1660 170   0
237       218579 170 1660 170   0
238       220765 170 1660 170   0
239       222951 170 1660 170   0
240       225137 170 1660 170   0
241       227322 170 1660 170   0
242       229508 170 1660 170   0
243       231694 170 1660 170   0
244       233880 170 1660 170   0
245       236066 170 1660 170   0
246       238251 170 1660 170   0
247       240437 170 1660 170   0
248       242623 170 1660 170   0
249       244809 170 1660 170   0
250       246995 170 1660 170   0
251       249180 170 1660 170   0
252       251366 170 1660 170   0
253       253552 170 1660 170   0
254       255738 170 1660 170   0
255       257923 170 1660 170   0
256       260109 170 1660 170   0
257       262295 170 1660 170   0
258       264481 170 1660 170   0
259       266667 170 1660 170   0
260       268852 170 1660 170   0
261       271038 170 1660 170   0
262       273224 170 1660 170   0
263       275410 170 1660 170   0
264       277596 170 1660 170   0

# Format of ADC events:
# id num dwell delay freq phase
# ..  ..    ns    us   Hz   rad
[ADC]
1 512 10000 120 0 3.14159
2 512 10000 120 0 0

# Format of extension lists:
# id type ref next_id
# next_id of 0 terminates the list
# Extension list is followed by extension specifications
[EXTENSIONS]
1 1 1 0
2 1 2 0
3 2 1 0
4 2 2 0
5 2 3 0

# Extension specification for setting labels:
# id set labelstring
extension LABELSET 1
1 0 LIN
2 0 SLC

# Extension specification for increasing labels:
# id set labelstring
extension LABELINC 2
1 1 SLC
2 1 LIN
3 1 REP

# Sequence Shapes
[SHAPES]

shape_id 1
num_samples 500
0.00865509563
0.00873753658
0.00881984839
0.00890195182
0.00898372638
0.00906500964
0.00914559655
0.00922523899
0.00930364531
0.00938048014
0.00945536417
0.00952787414
0.00959754295
0.00966385988
0.00972627092
0.00978417927
0.00983694597
0.00988389057
0.00992429207
0.00995738991
0.00998238507
0.00999844135
0.0100046868
0.0100002151
0.00998408746
0.00995533413
0.00991295646
0.00985592883
0.00978320083
0.00969369951
0.00958633173
0.00945998664
0.00931353827
0.0091458482
0.00895576837
0.00874214393
0.00850381624
0.00823962592
0.00794841596
0.00762903498
0.00728034048
0.00690120222
0.0064905056
0.00604715516
0.00557007807
0.00505822769
0.00451058716
0.00392617304
0.00330403891
0.0026432791
0.00194303226
0.00120248514
0.000420876146
0.000402500898
0.00126829321
0.0021770854
0.00312939586
0.00412567332
0.00516629328
0.00625155462
0.00738167622
0.00855679368
0.00977695606
0.0110421228
0.0123521606
0.0137068407
0.0151058355
0.0165487166
0.0180349515
0.0195639015
0.0211348192
0.0227468465
0.0243990122
0.0260902302
0.027819298
0.0295848947
0.0313855799
0.0332197922
0.0350858482
0.0369819416
0.0389061428
0.0408563976
0.0428305277
0.0448262301
0.0468410774
0.0488725179
0.0509178761
0.0529743538
0.0550390302
0.057108864
0.0591806939
0.0612512408
0.063317109
0.0653747889
0.0674206585
0.0694509864
0.0714619339
0.0734495587
0.075409817
0.0773385677
0.0792315754
0.0810845142
0.0828929718
0.0846524536
0.0863583868
0.0880061253
0.0895909544
0.0911080955
0.0925527113
0.0939199111
0.0952047564
0.0964022662
0.0975074233
0.0985151795
0.0994204625
0.100218181
0.100903233
0.10147051
0.101914905
0.102231319
0.102414665
0.102459882
0.102361934
0.102115821
0.101716586
0.10115932
0.100439172
0.0995513539
0.0984911493
0.0972539189
0.095835109
0.094230258
0.0924350038
0.0904450907
0.0882563765
0.0858648394
0.0832665847
0.0804578519
0.0774350212
0.0741946202
0.0707333303
0.0670479932
0.0631356169
0.0589933821
0.0546186479
0.050008958
0.0451620458
0.0400758406
0.0347484722
0.0291782767
0.0233638011
0.0173038082
0.0109972813
0.0044434284
0.00235831322
0.00940827323
0.0167065443
0.0242529785
0.0320471839
0.040088521
0.0483761003
0.0569087788
0.0656851579
0.0747035806
0.0839621293
0.0934586241
0.103190621
0.113155409
0.12335001
0.133771179
0.144415398
0.155278883
0.166357574
0.177647143
0.18914299
0.200840241
0.212733754
0.224818113
0.237087632
0.249536359
0.26215807
0.274946274
0.287894218
0.300994883
0.31424099
0.327624999
0.341139116
0.354775293
0.368525233
0.38238039
0.39633198
0.410370977
0.424488124
0.438673935
0.4529187
0.467212494
0.48154518
0.495906417
0.510285668
0.524672205
0.539055121
0.553423336
0.567765604
0.58207053
0.596326573
0.610522057
0.62464519
0.638684066
0.652626683
0.666460957
0.680174731
0.693755793
0.707191889
0.720470738
0.73358005
0.746507539
0.759240942
0.771768037
0.784076658
0.796154715
0.807990211
0.819571266
0.830886128
0.841923199
0.852671052
0.863118452
0.873254373
0.883068023
0.89254886
0.901686613
0.910471303
0.91889326
0.926943146
0.934611969
0.941891107
0.948772322
0.955247779
0.961310063
0.966952195
0.972167646
0.976950354
0.981294736
0.985195701
0.988648661
0.991649543
0.994194797
0.996281405
0.997906889
0.999069313
0.999767294
1
0.999767152
0.999069029
0.997906463
0.996280839
0.994194091
0.991648698
0.988647678
0.985194582
0.981293483
0.976948969
0.97216613
0.966950551
0.961308293
0.955245886
0.948770309
0.941888977
0.934609725
0.926940792
0.918890799
0.910468738
0.901683949
0.892546099
0.88306517
0.873251432
0.863115427
0.852667948
0.841920019
0.830882877
0.819567948
0.807986831
0.796151276
0.784073166
0.771764496
0.759237357
0.746503913
0.733576389
0.720467046
0.70718817
0.693752052
0.680170972
0.666457184
0.652622901
0.638680278
0.624641401
0.610518272
0.596322793
0.582066762
0.56776185
0.553419599
0.539051406
0.524668514
0.510282004
0.495902784
0.481541581
0.467208931
0.452915176
0.438670453
0.424484686
0.410367585
0.396328636
0.382377096
0.368521989
0.354772102
0.341135979
0.327621916
0.314237963
0.300991913
0.287891305
0.274943418
0.26215527
0.249533616
0.237084946
0.224815482
0.212731178
0.200837719
0.189140521
0.177644725
0.166355206
0.155276562
0.144413123
0.133768946
0.123347818
0.113153255
0.103188502
0.0934565368
0.0839600701
0.0747015459
0.0656831439
0.0569067815
0.0483741153
0.0400865439
0.0320452099
0.0242510028
0.0167045617
0.00940627854
0.00235630093
0.00444546397
0.010999346
0.0173059081
0.0233659424
0.0291804658
0.0347507157
0.0400781452
0.0451644184
0.0500114056
0.0546211777
0.0589960014
0.0631383333
0.0670508142
0.0707362637
0.0741976738
0.0774382029
0.0804611698
0.083270047
0.0858684543
0.0882601525
0.0904490361
0.092439127
0.0942345676
0.0958396136
0.0972586272
0.09849607
0.0995564956
0.100444543
0.10116493
0.101722443
0.102121935
0.102368313
0.102466534
0.1024216
0.102238544
0.10192243
0.101478344
0.100911383
0.100226657
0.0994292714
0.0985243303
0.0975169242
0.0964121255
0.0952149819
0.0939305108
0.092563693
0.0911194669
0.089602723
0.0880182984
0.0863709716
0.0846654572
0.0829064012
0.081098376
0.0792458762
0.0773533139
0.0754250147
0.0734652138
0.0714780523
0.0694675735
0.0674377198
0.0653923295
0.0633351337
0.0612697542
0.0591997005
0.0571283679
0.0550590353
0.0529948638
0.0509388944
0.0488940476
0.0468631213
0.0448487909
0.0428536077
0.0408799988
0.0389302669
0.0370065902
0.0351110224
0.0332454929
0.0314118077
0.02961165
0.0278465807
0.02611804
0.0244273485
0.0227757085
0.0211642057
0.019593811
0.0180653822
0.0165796664
0.0151373021
0.0137388213
0.0123846523
0.0110751222
0.00981045956
0.00859079743
0.00741617606
0.00628654605
0.00520177154
0.00416163335
0.00316583232
0.00221399266
0.00130566537
0.000440331761
0.000382593041
0.0011637565
0.00190386511
0.00260368067
0.00326401674
0.00388573488
0.00446974104
0.00501698186
0.00552844104
0.00600513567
0.0064481126
0.0068584449
0.00723722824
0.00758557744
0.00790462294
0.00819550743
0.00845938251
0.00869740534
0.00891073551
0.00910053183
0.00926794929
0.00941413615
0.00954023095
0.00964735983
0.00973663377
0.00980914604
0.00986596971
0.00990815532
0.00993672858
0.00995268826
0.00995700417
0.00995061528
0.00993442789
0.00990931408
0.00987611009
0.00983561499
0.00978858941
0.00973575439
0.00967779039
0.00961533643
0.00954898931
0.00947930305
0.00940678839
0.00933191241
0.00925509837
0.00917672554
0.0090971293
0.00901660123
0.00893538945
0.00885369894
0.00877169209
0.00868948932

shape_id 2
num_samples 500
1
0
0
16
-1
0
0
31
0.5
0
0
98
-0.5
0
0
2
1
0
0
125
-1
0
0
57
0.5
0
0
98
0.5
0
0
36
-1
1
0
-1
1
-1
0
0
4
1

shape_id 3
num_samples 500
3
6
6
497

shape_id 4
num_samples 500
0.000131029245
1.23285695e-05
0.000113292011
0.000246197608
0.000386763646
0.000535374598
0.000692422642
0.000858306226
0.00103342856
0.00121819602
0.00141301648
0.00161829759
0.00183444493
0.0020618602
0.00230093922
0.00255206998
0.00281563057
0.00309198715
0.00338149174
0.00368448011
0.00400126957
0.00433215674
0.00467741529
0.00503729373
0.00541201311
0.00580176477
0.00620670807
0.00662696814
0.0070626337
0.00751375478
0.00798034062
0.0084623575
0.00895972666
0.0094723223
0.00999996957
0.0105424427
0.0110994631
0.0116706978
0.0122557576
0.0128541955
0.0134655054
0.0140891206
0.0147244127
0.0153706904
0.0160271984
0.0166931168
0.0173675602
0.0180495772
0.01873815
0.019432194
0.0201305578
0.0208320236
0.0215353066
0.0222390563
0.0229418565
0.0236422265
0.0243386215
0.0250294345
0.0257129968
0.0263875803
0.0270513986
0.0277026092
0.0283393157
0.0289595701
0.0295613748
0.0301426861
0.0307014165
0.031235438
0.0317425854
0.0322206596
0.0326674317
0.0330806461
0.0334580251
0.0337972732
0.0340960807
0.0343521289
0.0345630948
0.0347266554
0.0348404932
0.0349023008
0.0349097869
0.0348606808
0.0347527385
0.034583748
0.0343515351
0.0340539692
0.0336889688
0.033254508
0.0327486218
0.0321694127
0.0315150564
0.030783808
0.0299740078
0.0290840881
0.0281125784
0.0270581121
0.0259194322
0.0246953975
0.0233849883
0.0219873127
0.0205016119
0.0189272664
0.0172638013
0.0155108922
0.0136683702
0.0117362276
0.00971462324
0.00760388692
0.00540452498
0.00311722476
0.000742859341
0.00171750804
0.00426261971
0.00689101941
0.00960104843
0.0123908419
0.0152583251
0.0182012104
0.0212169942
0.0243029539
0.0274561451
0.0306734
0.0339513243
0.0372862964
0.0406744651
0.0441117485
0.0475938336
0.051116175
0.054673995
0.0582622837
0.0618757992
0.0655090688
0.06915639
0.0728118321
0.0764692383
0.0801222286
0.083764202
0.0873883409
0.0909876142
0.0945547826
0.0980824027
0.101562833
0.104988241
0.108350607
0.111641734
0.114853254
0.117976637
0.1210032
0.123924115
0.12673042
0.129413029
0.131962743
0.134370262
0.136626196
0.138721077
0.140645371
0.142389494
0.143943821
0.145298703
0.146444476
0.14737148
0.148070068
0.148530623
0.148743569
0.148699385
0.148388616
0.147801892
0.146929933
0.145763562
